disp,force
0.0,0.0
6.58394681619803e-05,-9.458886902851057e-05
0.0003046029061824433,0.00013257836167037963
0.0007162903140613889,0.0006815016920966707
0.001370012861067342,0.0015502183581738167
0.002466585531001986,0.0027330251944018003
0.004006008323865321,0.004229922200780622
0.0057189667357312535,0.0060458162875016465
0.0073488470538556295,0.008185382956344212
0.008895649278238448,0.01064862220730832
0.010780764327406711,0.013425046722533992
0.013065567926537243,0.016606079317605056
0.015635011374286353,0.019775571645292152
0.018167268603092673,0.022941469002736647
0.020593228443687685,0.026105734154015084
0.022801231283394802,0.029275123152277562
0.025020321724036895,0.03245234091848996
0.027519814269540054,0.03563248054246092
0.030375780838198207,0.03881086652241109
0.033432072180973035,0.04198749885834049
0.03626729737933754,0.04517286486810907
0.03902446627603352,0.04836814582772387
0.04178239875214671,0.05157262468735202
0.04484459123900452,0.05477811415412716
0.04784986658626991,0.05797984581228633
0.05070906942281779,0.06117676677417946
0.05327804884857216,0.0643671251488798
0.05575085854606534,0.06755309941352818
0.058308040309747546,0.07073468956812459
0.06096352280020764,0.07391119368756902
0.0636057304137747,0.0770820610940895
0.0659644381143681,0.08024927656512369
0.06829046730574438,0.08341284920988569
0.07067448442077462,0.08657290604175671
0.07344878678560808,0.08973439697329348
0.07624362513602241,0.09289964571344621
0.07897410577027077,0.09606769923217576
0.08160533610722993,0.09902488785096555
0.08446268558311396,0.10133886489498986
0.08768837478637226,0.10301033228934867
0.09111228060221593,0.10404459984649085
0.09453417211057533,0.10444505035040741
0.0976323722262554,0.10421219512019059
0.10019707101414652,0.10335194002025958
0.10223107193753135,0.10186520198754113
0.10413580531206465,0.09974820533873506
0.10620756097102955,0.09698737081372746
0.1082871778130169,0.0937941896138941
0.10980589145599445,0.09060719236731735
0.1103168780266663,0.0874377315609484
0.11010183624349235,0.08428104806011036
0.10948762109066046,0.08112537241646789
0.10855564190786077,0.0779653126627735
0.10744337183356573,0.07479507791695167
0.1061419700573912,0.07161032033393484
0.10461429244778868,0.06841198349080414
0.1025741382998598,0.06521349540034531
0.10009497481211546,0.0620137547070145
0.09742019693037388,0.0588065774575551
0.09506434638570549,0.0555817910660472
0.0931394313754926,0.05234134713863945
0.09151882783561696,0.049093632339676195
0.08985849634239458,0.04585751408585272
0.08800605222436678,0.04264081117654506
0.08599641265282287,0.039446773023100304
0.08424863146377808,0.03626878234866682
0.08280433433469485,0.03310609941631249
0.08150091326135439,0.02997429087604274
0.07981230242825303,0.026958723882293416
0.07767078397761629,0.024058218534033206
0.07514996087939843,0.02122705563423281
0.07252717001128316,0.018399838433479167
0.07006504145726432,0.015563091482324529
0.0680576208785111,0.012711505896428643
0.06657887495720319,0.009846392199515294
0.06521521293744138,0.006974876065704996
0.06344202726341604,0.0040961330251875205
0.06130340103066431,0.0011955343332637877
0.05935907205331745,-0.0018132717846081373
0.057774557883070767,-0.004935125311676924
0.056364247352587604,-0.00812625865706192
0.0548717897018708,-0.011313048574488782
0.05332556835025753,-0.014484368846446603
0.05158392230803726,-0.01764272938797116
0.04953069678873989,-0.020806504171349757
0.047146140552564636,-0.023983681805458613
0.04490314634947397,-0.0271725468362273
0.04319528683332636,-0.03035708835899846
0.0420122604072818,-0.03353525906931401
0.04102515623786367,-0.0366584177577013
0.03955162169945115,-0.03954364453055459
0.03757067067435772,-0.04219916588473517
0.035436793132460086,-0.044742178648325324
0.03361940073664904,-0.0473027278521233
0.032160681591215025,-0.04986375004756558
0.03113170393146355,-0.05241725662577593
0.030553913069912935,-0.05496324758675436
0.03007879406287544,-0.05751757038492069
0.0288989723413448,-0.0599187294825695
0.027146284068182026,-0.0622039829402639
0.025582710913194265,-0.0645942288557009
0.02449499786883027,-0.06722622712543147
0.023500271545876174,-0.06999390713888422
0.0223139027035961,-0.07276277667819828
0.02114145509162209,-0.07552788840889635
0.019931611714449394,-0.07828924233097846
0.018142476280041304,-0.08094724826626735
0.015580984580043767,-0.08346496267989367
0.013031140781675485,-0.08600494379391481
0.011111594457731964,-0.08871013425503457
0.0097513815320178,-0.09154456899547335
0.00869825181511062,-0.0943395749324466
0.008060550347425081,-0.09699491564919326
0.007653494706806275,-0.09951503833277597
0.006767510260300061,-0.10165124476722917
0.004893582155527652,-0.10314737113409682
0.0025521613720074516,-0.10410300761155616
0.0005439199478625071,-0.10455792949695172
-0.0009324415229040474,-0.10451306283642434
-0.0024643799471285757,-0.10383203221100597
-0.004098140599569107,-0.10251530562805401
-0.005868218283252018,-0.10059479627380206
-0.00784194429915818,-0.09816907684440186
-0.00990593768992727,-0.09523354804610278
-0.011556187572237177,-0.09204185542934766
-0.012200178057080565,-0.08885114299840195
-0.01176134822554972,-0.08566230947176423
-0.010847305907413639,-0.08247252308695932
-0.00987708416404788,-0.07927842237211978
-0.008913292889199701,-0.07607928718371734
-0.007900006720020659,-0.0728736511101571
-0.0063120797828329685,-0.06969056188829265
-0.004190525817070412,-0.06653168323873328
-0.001807732400644284,-0.06339762152576721
0.0004466137865345446,-0.060278591047265025
0.002489011707837517,-0.05717361161741726
0.004331678765258132,-0.054071870770982904
0.006048485306253167,-0.05096511951306059
0.007859763798195056,-0.047855793269377014
0.009934655385217104,-0.04475613894858287
0.012281047874941182,-0.04166799592443448
0.014369825720686933,-0.03856156577490209
0.01613640177829406,-0.03542463474543681
0.017739782668313518,-0.032261195765501044
0.019565929690133467,-0.029084632711160248
0.02160670171498921,-0.025902808724757108
0.02377332042197952,-0.022725637553034087
0.02583363381483745,-0.019577717786441712
0.027668225743497737,-0.01647138443519932
0.029170929410535496,-0.013395086672109494
0.030668285894538103,-0.01031115377202413
0.032238570077615186,-0.007213002952794694
0.03393162519978013,-0.004112719494677166
0.035582506915309176,-0.0010088661183744658
0.03719494060472505,0.0021021553500494066
0.03881723385231483,0.00522833510069275
0.04052802423171486,0.008369921866661538
0.04248559339173533,0.011543265243504946
0.04478527662676895,0.01474730454058574
0.047410623319938276,0.017972888607064714
0.05000885952895272,0.021185200823624215
0.052307998210925126,0.02441045266159721
0.054287943282512456,0.027654427698500704
0.05615528289019389,0.03091389276488814
0.058260492121980895,0.03417373361213717
0.06056340452235108,0.03743382319249219
0.0628202731196692,0.04069187093391755
0.06474040530715539,0.04394428196241897
0.06634788194048218,0.04720445197885303
0.06793074098770185,0.05048501718186836
0.06965666021423132,0.05378812923657947
0.07172332145385063,0.05708024320432866
0.07387153250760913,0.06034997119254017
0.07601738129434026,0.06359832191776939
0.07783395738052694,0.06684000143272471
0.07947847421899586,0.07007228642614012
0.08111604120774593,0.07329721873694528
0.08303684562338462,0.07651911922630944
0.08524008496714386,0.07973914081136563
0.08745417188784878,0.08295379844430438
0.08945943023749105,0.08615933105094241
0.09122691772964749,0.08935484283460456
0.09305066655075878,0.09254580963605664
0.09521442447075576,0.095731893211274
0.09772191682021503,0.09891337457091735
0.10034788474816767,0.10209529936022725
0.1027199519283683,0.10529037647969301
0.10483862369098935,0.10849787994213966
0.1069262200119242,0.11167346059352272
0.1093008020815907,0.11475509602950673
0.11201436828258028,0.11774439565916046
0.11474566048262505,0.12070195449016025
0.11731950638501452,0.12365763441685204
0.11949442650022897,0.12661256085685466
0.12149046273445784,0.1295622383270836
0.1233964063494172,0.13250395675041407
0.12556043532570074,0.13542836388580926
0.1278712967469709,0.13835089211689647
0.13010747313610235,0.1413147376805872
0.13203318430250374,0.14438764013021985
0.1337554371020098,0.14757703464694732
0.1356244319533117,0.15082322201976853
0.13775144774481865,0.15408639051448259
0.14010787586661594,0.15736208503791652
0.14244638442744317,0.16065492825840802
0.14498685325242633,0.163957006503257
0.1477670115230455,0.16726449630875742
0.15081158756245702,0.17056196529128193
0.15378045424861594,0.17384941345083058
0.15659133058169583,0.1771211236384003
0.15935145816874122,0.18034092368049517
0.1623135271824782,0.18347492042585892
0.16554143103120791,0.18653306371434636
0.16873309258633837,0.18956010402103746
0.17175661838057257,0.19257211309326466
0.17437138272521063,0.19557739234687835
0.17706596551593584,0.19858857024628876
0.1799419347991629,0.20160601116005913
0.18323515089291745,0.2046069729899428
0.1865904510560596,0.2075139896044274
0.18979358682571004,0.21035579799585602
0.19280489299830228,0.21290614591111612
0.19585240312036853,0.214886559519622
0.19926680293041557,0.21625674343946666
0.202970447995594,0.21698211187537988
0.20688934257025235,0.21705612681785968
0.210521375922879,0.21646662660674934
0.213704605110647,0.2152257110282986
0.21654256770679453,0.21335618405466103
0.21936940041207006,0.21093708444581755
0.2221223927737654,0.20797310258765955
0.2245885198227209,0.2047243838845559
0.22650955684617743,0.2014694021670923
0.22785616221288854,0.1982081574352688
0.22883787382300064,0.19495916373702307
0.22917229715805684,0.19175142395062628
0.22874883718104694,0.18859190937480097
0.22772281933932695,0.18546727758899936
0.22652517819286938,0.18233262498022187
0.22517693978206557,0.17918637891999994
0.2236038947599886,0.17603091691320844
0.22144551950666203,0.17288484942795682
0.21873200518831276,0.16974817646424512
0.2157968330077616,0.16661058295429543
0.21290832444654206,0.1634629686213699
0.2104228697687624,0.1602828685966994
0.20799308574120492,0.15708155630613183
0.20548683321007133,0.15386483844396331
0.20249826794871403,0.1506765519857863
0.19956487605502854,0.1474945285419692
0.19682357732864994,0.14431170022174575
0.1944807332321698,0.14113177052219136
0.19217559583909544,0.13800695534900442
0.1896040255778526,0.13494756976996278
0.18681458660206895,0.13192444848778967
0.18406091267111277,0.1289069639185405
0.18180098205521192,0.12587687133764477
0.17980261839649378,0.12282771764035057
0.1779587767494877,0.11976015336204078
0.17574467337838917,0.11669702338039634
0.17333576611403193,0.11364767203034379
0.17088621711380073,0.11058978534669822
0.1688437917648077,0.10746912105330837
0.16739042224722814,0.1042814425062672
0.16620922292590076,0.10106501527958942
0.16466524906102653,0.09793286650158016
0.16248190575581578,0.09494476705384945
0.16001508256417682,0.09210224161258794
0.15786296538121594,0.08928841397686178
0.15611425930929393,0.08647954656601016
0.154545646749362,0.08366841903883489
0.15268282880084502,0.08087608055473944
0.1504387880031237,0.07810455748417666
0.14774869381653788,0.07534349643192083
0.14483223890052288,0.07256552524089316
0.1420707342355095,0.06968824436673311
0.1398063418202442,0.06666095776751792
0.1380820975161931,0.0634896218380242
0.1363824992711768,0.06029146700730313
0.1342033605765088,0.05712078590999139
0.13152684694837616,0.053980548493622986
0.12891229372978352,0.05084419332117232
0.12700896020392538,0.04766963376112604
0.12569974473028653,0.04447145985261698
0.12448624408608362,0.04132408682792857
0.12289763282518858,0.038306984501926857
0.12086834384564467,0.03541107803492454
0.11861050680524157,0.03255321742081846
0.11627534742255924,0.029687653299049648
0.11426564474183247,0.026783154127592832
0.11285094870993223,0.02384835523514952
0.11197299437120901,0.02089057190499067
0.11089354634210954,0.01795536189481001
0.10906583776278195,0.015064055615292515
0.10676857919657429,0.012169609991233494
0.10466545332123346,0.009175144818457307
0.10305062421631125,0.006054104125466791
0.10166892636255184,0.00288368152358856
0.09995623454182638,-0.0001866890457713552
0.09769219666430828,-0.003101674228861234
0.09467295703515465,-0.005875003295644942
0.09159928151603482,-0.008656233832219251
0.08863380139368728,-0.011463795497387718
0.08630996641253962,-0.014314701965593136
0.08455994390773829,-0.01718696531276594
0.08319087664766442,-0.020063175149596532
0.08162127240081114,-0.022843360567133514
0.07945457702930699,-0.025426198402188873
0.07710369003270086,-0.027915373235609706
0.07522497105108811,-0.030488184266544833
0.07402722240156175,-0.03320304046316334
0.0727829067356724,-0.03591218724501721
0.07160668218910418,-0.038596579136056706
0.07052555836787595,-0.04126023570589861
0.06947951119971246,-0.04392125404109659
0.06791722839827719,-0.046562857031778766
0.06612603811552521,-0.04925845961539939
0.06467564056011277,-0.05212802842267294
0.06378260200340426,-0.055194882182284494
0.06301091489513086,-0.05833705504883696
0.06196195003632413,-0.06148297953661469
0.06055448056373641,-0.06462702512008442
0.058600193155303876,-0.06777327874267278
0.05627667463709105,-0.07091964167583008
0.05372050869352908,-0.07406989544650329
0.05143346836935582,-0.07724534014716301
0.04923186164468975,-0.08046274704403428
0.04694254244874617,-0.08370347266959065
0.04444972064085579,-0.08693539673188214
0.04186775085789991,-0.0901485317510938
0.03938645998175406,-0.09335603624477223
0.03719623954308149,-0.0965757917720285
0.03533860519570239,-0.0998124574380566
0.033622277622957684,-0.10306842913803153
0.031623434016347235,-0.10634381618252228
0.02938336514107876,-0.10963409558893016
0.027246003306877483,-0.11292116270833509
0.025728504530385082,-0.1162007142105081
0.024730092680906455,-0.11948155165871405
0.023724027009388606,-0.12267740735817571
0.02228551535905979,-0.1256891304354552
0.020305393062504354,-0.12850446985697472
0.01815893771579511,-0.13126223973299628
0.01598609895855889,-0.1340106150874779
0.014200019195564472,-0.1367496046858898
0.012392171228620989,-0.1394810786670697
0.010402314767884738,-0.14220637041371267
0.007810727108837037,-0.1449297832560477
0.004893708612382455,-0.14765131719407473
0.002063645390692657,-0.15046722740238594
-0.0005730049467260442,-0.15347601748460366
-0.0033139519791271616,-0.15667708210767142
-0.006575988956403695,-0.1599269480561333
-0.009821900276658826,-0.16317356837443123
-0.012850622817276953,-0.16641579581720703
-0.015261807243914717,-0.16965212117674683
-0.017609099443277394,-0.1728947095506466
-0.019989932727487978,-0.1761435609389063
-0.02261842803176942,-0.17939867534152593
-0.025338477857734146,-0.1826600527585055
-0.027831747658116707,-0.18592834045966056
-0.029857090237921605,-0.18920075618164156
-0.03146251618510606,-0.19247442450649455
-0.03332519074119371,-0.19575321736581947
-0.035670796826204644,-0.1990432644013323
-0.03848967952133174,-0.2023454765344411
-0.04121612462616762,-0.20563475186483662
-0.04363434068689881,-0.20867976963519458
-0.04580650712920695,-0.21148052984551496
-0.04804808961002024,-0.2139054335705751
-0.05071545033467199,-0.21566019475912196
-0.05375202691890416,-0.21674820100756154
-0.056931559501776946,-0.21716878889011373
-0.060116833368536855,-0.21691923423615267
-0.06328127526535045,-0.21599454588385034
-0.06605390166685944,-0.21439859438983094
-0.06836741381064286,-0.2121454371620116
-0.07042769829147139,-0.20946736087815293
-0.07211621403831012,-0.20637592564653842
-0.07327360289261843,-0.2030027303923908
-0.0735035053441231,-0.1996420611669631
-0.07272586088952601,-0.19629391797025525
-0.07111891880180972,-0.19296183964600136
-0.06898416635996713,-0.18964855036482733
-0.06643614293459264,-0.1863540501267331
-0.0638390606296132,-0.18307319652256251
-0.06107874994790401,-0.17979375226849495
-0.058129675934445554,-0.17651271579255495
-0.05512685277754794,-0.17321795619966743
-0.05221648497335323,-0.1699044075637001
-0.04943856982680133,-0.16657206988465292
-0.04684356034434754,-0.16322273338090063
-0.04437819941569549,-0.15985961824555645
-0.04187821447660579,-0.1564827244786204
-0.03931196879568366,-0.1530924362139315
-0.036731726273883145,-0.14968899561908683
-0.03433102348445211,-0.14628351937270315
-0.03193773947211194,-0.1428829435397506
-0.02950421458985056,-0.13948857520651367
-0.02690935590154926,-0.13610932902800943
-0.024328284942863133,-0.13277204504571677
-0.021790609210635005,-0.129474933041261
-0.019287084662878894,-0.1262030666220762
-0.016716360510210283,-0.12293746321725134
-0.013995534113429514,-0.11967773869294739
-0.011328292645974807,-0.11642245310585185
-0.00886018555652123,-0.11317092532737225
-0.006798773614409717,-0.10991825494407748
-0.004889205079768898,-0.10666706334715902
-0.003072282751111072,-0.10341390192566376
-0.0012266068276269079,-0.10013221164877353
0.0003423480919919358,-0.0968235904101356
0.0015720808554630806,-0.0934997444092026
0.0025069300754240586,-0.09017889413659819
0.0033604026833902356,-0.08685992276830176
0.004388449753753902,-0.08354402808002886
0.005725221675433895,-0.08023437750019988
0.007364888900242979,-0.07693224253760281
0.00902141315857295,-0.07363426550155337
0.010675318876189402,-0.07033487361549814
0.012381638499711106,-0.06703332181447419
0.014443081025988647,-0.06372899135941187
0.01684649127786011,-0.060426539808657566
0.019446179853303474,-0.05712672924249862
0.02199284161512637,-0.0538282541214982
0.0244389742188864,-0.0505279000961898
0.026795976724339806,-0.04722318086674546
0.02912770182436939,-0.043917979020826836
0.03146073475333948,-0.04061465607921619
0.033780465444020115,-0.037318384700535286
0.03574908521624252,-0.034029510966170365
0.03734857366680698,-0.030747048434172544
0.038682685898997496,-0.027466760873127487
0.04011872230678742,-0.024190356380985583
0.04169248109585372,-0.02092025732120428
0.043342170595493855,-0.017657943958258777
0.0449362943787801,-0.014401329938380818
0.046416829301016864,-0.011145261165120731
0.04791120004569082,-0.007885997756108383
0.04948233219578166,-0.004622976538480074
0.05146672371968516,-0.0013563154851517377
0.053808240538363035,0.0019418681238109533
0.056413573040913156,0.005272978104233713
0.05892898408955532,0.008631895473109075
0.0614020037600715,0.011994695910887598
0.06394192606760667,0.015359645332577977
0.06662332859540099,0.018724657384411952
0.06938406459219518,0.02208973206638953
0.07207012414013828,0.025453491016922822
0.07464771634948901,0.02881537106314814
0.07712739505865789,0.03217537220506547
0.07958608035172396,0.03550560443536924
0.08200856023893247,0.03880260480898452
0.08438109264472123,0.042073175657306394
0.0866410637713691,0.045341857976490305
0.0887422807714212,0.048610540295674215
0.09074166248856504,0.05187922261485813
0.09280267361194806,0.05514790493404204
0.0950257462395643,0.05841658725322596
0.09738174567817523,0.06168526957240985
0.09955364665139795,0.06495110259817828
0.10144372880568424,0.06821317781533076
0.10307742102525383,0.07147356456231112
0.10497347707540253,0.07470388884036376
0.10714698067806952,0.0779035339728827
0.10952481151015815,0.08107890683106153
0.11178488457624046,0.08425240078493239
0.1138258819384283,0.08742401583449526
0.11583250199601375,0.09059177407719105
0.1180613324644899,0.09375389560696289
0.12081884478182921,0.09691322971722625
0.12374563057255346,0.10007313495802524
0.12670703317691884,0.10323470391943357
0.1291969134857625,0.10642635941184451
0.13152652272780674,0.10964870367461917
0.13381517407360297,0.11289344130742592
0.13633640066036468,0.11614776870832343
0.138973868072929,0.11943466378389263
0.14144244581400986,0.12275610443669259
0.1435634551116972,0.12611180192182422
0.14540051254106034,0.1295000670816275
0.14741074683112568,0.13291844988125887
0.1496217236510304,0.13634454818521602
0.15199711925467072,0.13977312763284222
0.1542376255342541,0.14320307655627582
0.15652217977528807,0.14662676246534942
0.15889933383598723,0.15003459559197233
0.16143927751225196,0.1534047952896633
0.164043322527055,0.15673992210693866
0.16663355993681328,0.1600420446947543
