disp,force
0.0,0.0
1.9134002136416844e-07,7.276030776341733e-09
6.339673103413024e-05,-3.310801024040453e-05
0.00018961617303829822,-9.93458588135426e-05
0.00035424414941603844,0.0007941318760587977
0.0005431745957670251,0.0032165080748069734
0.0008340837925854902,0.006785248878994918
0.00143568865049325,0.010472482142415173
0.0023479891694903046,0.014278207865067739
0.0034366416571105225,0.017832083051690456
0.004687843919134437,0.021096059425847
0.006344541174382999,0.025120301588751722
0.008548997565138085,0.03082376439289138
0.011983156965865823,0.03864591506165765
0.019819615474384954,0.049622584862994285
0.0320724791550958,0.06318459091647094
0.04915973811604194,0.07938647694504351
0.07098618463409583,0.09918100430539366
0.097409687977291,0.1225733658601406
0.1283903694829621,0.14994026996088353
0.16400717174200535,0.18128505561689434
0.20471916804276286,0.21518338698455927
0.2503212715319827,0.25074943904972435
0.3003082931951743,0.2870726238222688
0.35160080964657214,0.3219415135208368
0.404292099703357,0.3552500122843488
0.45805515449304907,0.38713427822323865
0.5127764648281541,0.41766942212703195
0.5604845082649567,0.43835238190521464
0.6012857966528304,0.4491058753147124
0.6336680467897324,0.4513804457308937
0.6560693816361465,0.44639132555379823
0.6683867495364721,0.4341781352244895
0.6701545359090566,0.4153230538863108
0.6613041735584645,0.39000883990692664
0.6418203702198029,0.35820629441265556
0.6115432726483114,0.3200919753650671
0.570410763458518,0.2757457679154935
0.5264823252863178,0.2337352065189767
0.4799036512874699,0.19409396621700364
0.4325032172536297,0.15522410131547426
0.385140690377129,0.11628454338071735
0.337497528730194,0.07711460185017192
0.28976072135948255,0.037573963881577126
0.2417473082822123,-0.0019317228348631444
0.19314739013145835,-0.04075298064768967
0.1439207202742622,-0.078844882810391
0.09375045800262298,-0.11592992642723196
0.04269077385632801,-0.15207777672535946
-0.0069704933068650094,-0.1839294996880774
-0.05465876519338372,-0.20996085246366974
-0.09793539931533854,-0.22948941562744024
-0.1318065546511506,-0.24111464062599997
-0.15617036052580033,-0.24480727299370228
-0.17033329372908512,-0.24079025797347023
-0.17405484817252348,-0.22957470342277866
-0.16778545519945948,-0.21108406062525256
-0.15144268022244137,-0.18561036604108058
-0.12488892388680503,-0.1531513630786989
-0.0900873028108936,-0.11702213966014809
-0.04799372827456859,-0.078564827051248
-0.0011599394150252852,-0.03898289110065484
0.045827878256416404,0.0003799758047022514
0.09189782811042933,0.03705343727835298
0.1355730012623088,0.06862771153179661
0.1757407437449201,0.09453330415417005
0.20715086598595206,0.11172327725863383
0.23009989149142565,0.12013227925830913
0.24455382931708605,0.12007356734495402
0.2501363453881512,0.11162084306153652
0.24666274369853794,0.09467990218846828
0.2340039975540583,0.0696482961099318
0.21212817984290763,0.036664569740393345
0.18148189713011265,-0.0007875703601530424
0.14303149507295795,-0.04048104485048748
0.09748966265432159,-0.08164758111407987
0.050423868801020295,-0.1212615517371843
0.002919326646692463,-0.15780130037061377
-0.04301684778853389,-0.18862274039150692
-0.0874110253192928,-0.21380617759223705
-0.12303066774202144,-0.23061985678921584
-0.14945420859229117,-0.23887312900202096
-0.16669712418630525,-0.23903332597101853
-0.1741732139335719,-0.23236425506888955
-0.1718840198639432,-0.2185887225338465
-0.15944288662894388,-0.19706077307145425
-0.13668521987807472,-0.1678652976080287
-0.10463794645220796,-0.1329396159288621
-0.06540399323225891,-0.09529893596148264
-0.018914366697638362,-0.05522263571589707
0.027847388250657377,-0.015608627572465875
0.07435624119972413,0.022794816844644867
0.11876373721157645,0.05661668222888962
0.16110896576002307,0.0861074057794257
0.19616335665868795,0.10803316472451346
0.22253159922841337,0.12075470275126414
0.24016963220409904,0.12439603892823538
0.2489594227084362,0.11954100516666855
0.24888754558495904,0.10623787855886253
0.23979693748156586,0.08465131878624953
0.2216233011017732,0.05504168726519014
0.19412170812337975,0.018734938120367042
0.15894362949418261,-0.020222824015605757
0.11593407406151618,-0.061653112850479724
0.0700102953836938,-0.1022390144103636
0.022572320501810086,-0.14118908094169405
-0.02382217538979589,-0.1747285827375145
-0.06902738409002646,-0.20289220213244455
-0.1085549778961113,-0.22387408542409482
-0.13935950123821278,-0.23637296890614756
-0.16135055641031382,-0.24051794163495993
-0.1736483910467176,-0.23736687375535084
-0.17599467965611293,-0.22720185381245117
-0.16877050759619708,-0.20960092678545736
-0.1517404897832188,-0.1848376020872478
-0.12455959165500222,-0.15282024700074662
-0.08940904704955353,-0.11735933830149935
-0.04637709123779387,-0.07868974086753175
4.07536057400263e-05,-0.0392079967565814
0.046887101742722925,-0.00010065134639160768
0.09250546797598388,0.03553023514330391
0.13616634618356624,0.06718933333581946
0.17493053016445914,0.093073330437945
0.20521085772999353,0.11005202417842631
0.22707964181383444,0.11806481527314251
0.2400973539341778,0.11749937160058356
0.2439316139997911,0.10826742116078089
0.2386991405662332,0.09041772514525422
0.2244648466510125,0.0645243737536719
0.20099750707929007,0.030873115947106466
0.16937858439671197,-0.006705997625327221
0.1300483479737086,-0.047304603883286084
0.08502656131016739,-0.0886890616628009
0.038396773299324345,-0.1283110339166505
-0.008428164300577993,-0.1639748422864576
-0.05439251683849507,-0.19464259574938592
-0.09762548660265785,-0.21947772939957702
-0.13197290640862935,-0.23562444472562866
-0.15748686719530772,-0.2430588131428149
-0.17379520799544726,-0.24274800659969317
-0.18039139335373694,-0.23539686354029254
-0.1774432776930404,-0.22063197541537896
-0.16419855980928105,-0.19851184801955105
-0.14062576730344273,-0.16907641408869767
-0.10818449743886266,-0.1346824298358896
-0.0678359909469572,-0.096847086879529
-0.021160072251078552,-0.0566793913012192
0.025660341810156816,-0.01706285500704734
0.07203442816484038,0.020728592683336336
0.11696361567444415,0.05552714634210988
0.1601001277583806,0.08716910409198472
0.19444807831601657,0.1093533968084627
0.22017460884439896,0.12170820191538342
0.23717238430916177,0.12511117997367646
0.24543871313213947,0.12010183020736952
0.24500135525281558,0.1066812117388406
0.23562977938474444,0.0851240717818902
0.21723819028091287,0.055510741277192764
0.1894845805697249,0.01956346952236638
0.15317784352386674,-0.020845089539694734
0.10851475177563008,-0.06489500448878695
0.06256782607014232,-0.10626976805137558
0.01569827049341002,-0.1443046574384176
-0.030709329587983652,-0.17752057910236096
-0.07660037645028021,-0.20632213067947977
-0.1151819072972172,-0.2270583764025774
-0.14537789060458917,-0.23912312440259148
-0.1667011052717494,-0.24285962174965853
-0.1777172384843264,-0.2390694825510377
-0.178478244685773,-0.22770546219791046
-0.16953857990582757,-0.20883812917914452
-0.15080702436612037,-0.18285633019301034
-0.1225249473481109,-0.15054688033853314
-0.08592436687939138,-0.11428288927954156
-0.04101301872935037,-0.07423031762400732
0.005376752402669529,-0.034290493979635794
0.052073028018946775,0.004815302077484786
0.09761801330135882,0.04034206788997996
0.14151022587903872,0.07264309758714103
0.17905479880155412,0.09800763563756859
0.20858229445694204,0.1141699168633556
0.22988020398954234,0.12139405246497416
0.24234776013057124,0.12039984937508016
0.2459479479821835,0.1112250197958903
0.2407125142256557,0.09360123925507455
0.22665455739923598,0.06775113468244162
0.20337902864790383,0.034297867110590775
0.1715417812739705,-0.0032971915293482828
0.1310639079545998,-0.044900632122971684
0.08644992485880162,-0.08638029375020684
0.040052819066769836,-0.12595013521618886
-0.006810176254336672,-0.16143871571566237
-0.05346149386728763,-0.19301023518281663
-0.09592993434752929,-0.21837218372673817
-0.1300144160029832,-0.23465119790587993
-0.15559359015368093,-0.24193823523413363
-0.17133729216116425,-0.241605542926578
-0.1769308016102688,-0.23402624318683193
-0.1729165189841042,-0.21886516146095816
-0.15920421393165088,-0.19646291929112075
-0.1357314112901415,-0.16685884301226372
-0.10350566856203329,-0.1325496483679666
-0.06271595556939057,-0.09397749655558799
-0.01705679390277814,-0.05374700609775541
0.02924672383383745,-0.014297255355714153
0.07530030870430801,0.022537159841158425
0.1198113995778467,0.056623862088144794
0.16064436838150675,0.08618227423695377
0.19339392171543945,0.10655289035427273
0.21826087652693596,0.11758425645718681
0.23454040629846568,0.12023124263715007
0.24208979892361207,0.11461992837063782
0.24090628543758252,0.10057704579833755
0.2307168904942434,0.07827713458831449
0.2113476190621511,0.047859234381483096
0.18289522744600173,0.011814764793580172
0.14575260596468953,-0.02886202891922687
0.10184316499684759,-0.07165195642819291
0.05615327094490402,-0.1122240602268202
0.008330262235753933,-0.15064820161009543
-0.04137136746423393,-0.18791675788388065
-0.091945165350901,-0.22315168441380787
-0.13576564983008685,-0.24868320391212162
-0.17283652338964653,-0.2643737474151727
-0.20070488919780252,-0.271824684946289
-0.21792607242351328,-0.2720692502852246
-0.2248176169616054,-0.26497438866072276
-0.22167870760023603,-0.251064429365454
-0.20847831997541127,-0.2304700241058011
-0.18534763205067842,-0.20262837904443745
-0.151898786137643,-0.1674626606320109
-0.10876381126562697,-0.12602724966792564
-0.06339931546883075,-0.08586888029091042
-0.01572165222361341,-0.04709078346708472
0.032195162893585,-0.008483485740019135
0.0795811624285552,0.030447087185894804
0.12018790545314655,0.06084254097648102
0.153998361843995,0.08178637356247426
0.17981001916646605,0.09412008321438974
0.19715898933219822,0.09801623955225637
0.20606680853289816,0.09339177040297035
0.20629252911229215,0.08001891810155874
0.19766238152428325,0.057956553867181085
0.17936523415886826,0.028049050615619384
0.15104967041538309,-0.009301453578758757
0.11245736785937457,-0.053744542253177804
0.06986061476125803,-0.09615647410583814
0.023768859323974427,-0.13583821786435976
-0.024770490353290965,-0.17366823883304555
-0.07480970664552457,-0.2103120391742646
-0.12047087502223093,-0.23963821479527753
-0.1597603222909737,-0.25917345129396313
-0.19152230760877456,-0.26960605783500985
-0.21310140974489583,-0.2728253715929613
-0.22435613991002396,-0.2689761839947989
-0.22550769938574156,-0.25798187777446785
-0.2162623916194869,-0.24024085467084894
-0.196824890687647,-0.21526111492853015
-0.16715343552824208,-0.1827472299423791
-0.12723450394033323,-0.14290549883347348
-0.08293305424775729,-0.10231048083449104
-0.03633069046413866,-0.06309631225616733
0.01173788709826381,-0.024616734823804772
0.059373709602564016,0.014272652459197703
0.1029489459132152,0.04857600203163019
0.14000481250964034,0.0738292152908056
0.1700463051962993,0.09018522678557216
0.19116552109852777,0.09781378247971702
0.20348501392916768,0.09644703726675209
0.20706863567722514,0.08618685599183656
0.2018984122792902,0.0675371706735268
0.1876266209731134,0.040909369300648854
0.16352350388654546,0.006829052945533178
0.1295061642294059,-0.03463319839182492
0.08869547918927387,-0.0778519763441138
0.04402975600276191,-0.11879021603747687
-0.004197609107506535,-0.15759986360908387
-0.053929279916404976,-0.19493911396981145
-0.10231237826357786,-0.22783778323074896
-0.14449340053794218,-0.25105780960733787
-0.18048140260903384,-0.2645807971611759
-0.20642959459565954,-0.27064649862254603
-0.22192925915638928,-0.2697384641737876
-0.2273230228151036,-0.2615987419303118
-0.22232414913985193,-0.2466769189085148
-0.20713437232500967,-0.2248609072186233
-0.18208835531402398,-0.19585373153073085
-0.14711187297807593,-0.15965575574405777
-0.10439480709982185,-0.11931947575425546
-0.05880163235713295,-0.07998676311850596
-0.010384704330610676,-0.04186180833784811
0.037319365727132424,-0.003290272317727698
0.08332549896464497,0.03421752020658035
0.1235482718898357,0.06346505223861736
0.1582129436061782,0.08426786026727533
0.1844366526008676,0.09679189147760181
0.2020591770204434,0.10080196164200748
0.2112903265632984,0.09625264395066832
0.21172208573191706,0.0831710433915759
0.20323710664032354,0.061611896196926114
0.1853457777046654,0.03227108113984149
0.1580856430586116,-0.004677376132775132
0.12177886228966163,-0.047115137712876176
0.08065296322873776,-0.08793704747638638
0.034585046927493826,-0.12711808822119824
-0.01356045443547787,-0.16489147872740015
-0.0630870480903529,-0.20131999850898763
-0.10726259859790256,-0.2289468261463357
-0.14629914356598636,-0.2476709073069059
-0.17754933290360075,-0.2582670617414761
-0.198950274552859,-0.26165181213677624
-0.21061036489435336,-0.2577476725692397
-0.2121672162884697,-0.2469478245876931
-0.20336637706746719,-0.22948564497605725
-0.18445485318666174,-0.20458950565514744
-0.15525326874139186,-0.17221638069912795
-0.11575763808600838,-0.1327536086054966
-0.0729064602156644,-0.09394749174137053
-0.02665124015756867,-0.05583019869824911
0.02085207994357911,-0.017607510732311857
0.06807511272892645,0.021149305927170972
0.11070569278243989,0.053775611260207044
0.1479906658419404,0.07848645843509244
0.17812436877953702,0.09520745821607904
0.19920758341128078,0.10304848258431483
0.2113260739353594,0.10191501652981325
0.21500206711849873,0.0921163289177161
0.21023211681823045,0.07398732750533968
0.19639751175881603,0.0479849181771756
0.17284694935889128,0.01423138129078451
0.13922953761178838,-0.02704629943931107
0.09931408012066659,-0.06883936300369767
0.05415426277204247,-0.10957769419461759
0.0058065806115542426,-0.14876869951402447
-0.04345617226863222,-0.18631277567253451
-0.08994249113510769,-0.21790295990226807
-0.1319000033013174,-0.24083877505450202
-0.16819579818078859,-0.2553567594434242
-0.195023838494938,-0.2626120648226768
-0.2121732848458863,-0.2627928627265172
-0.21926224540874228,-0.25579722388509524
-0.2156352245980706,-0.2420071008902836
-0.2016132447318671,-0.22099699735258682
-0.17773408826380346,-0.19280478130795606
-0.14394963890143497,-0.15747916497263018
-0.10373167900808514,-0.11953813589304148
-0.05935879368268373,-0.0816041015855569
-0.011783618750020097,-0.043698686593615574
0.03576036357527923,-0.005202170002938519
0.08135500511789578,0.030840068469335142
0.12247644355878429,0.06014128140492146
0.1587862032639439,0.0825780569178374
0.18618968229154503,0.09662002953303485
0.20497383117751206,0.10188686302416662
0.2152242717495391,0.09843474291809294
0.21673350517781226,0.08648702558084914
0.2093990941256932,0.06616930341246224
0.1928434035926046,0.03798171106410572
0.16702115154521235,0.0019890947683610005
0.13269270098825411,-0.03800878118262719
0.09232402175950419,-0.07803655975170515
0.04623253755737183,-0.11776431272606881
-0.0011770625079736716,-0.15593169982006028
-0.04873121815170382,-0.19107782625707181
-0.09301874231850708,-0.2187988514561041
-0.1340968351229164,-0.23910043421522126
-0.16648315385532628,-0.2514626537063991
-0.1892752958503243,-0.256042886515443
-0.20263981903176861,-0.25294599441159027
-0.20557284138802212,-0.2430232565345975
-0.19813148390104432,-0.22617764235150956
-0.1807552002767796,-0.20203251611376677
-0.15343305536557156,-0.17074334902147392
-0.11716133820631806,-0.13395162685620615
-0.07544179661388141,-0.09612250975599383
-0.028175258220625582,-0.05738354538494689
0.01939168257139025,-0.018551701009622973
0.06631847668272732,0.01988679225758852
0.10922027752971625,0.051980187829144736
0.1482509882713007,0.07782538026979643
0.1797130668016605,0.09612994921894365
0.2024255896558398,0.10576098515817038
0.21652442600307656,0.10665259398599304
0.22210394657480367,0.0988536252378173
0.21911730300587862,0.08241180460822968
0.2069563849610041,0.05788282664547385
0.18547161234439052,0.025451831879471636
0.15437002098750632,-0.013941152034540348
0.11685745293660922,-0.0538874670694712
0.0728538258717969,-0.09429059409339798
0.02588744308932342,-0.13366743362712707
-0.02240400369628786,-0.1715078825487381
-0.0680780675415931,-0.2026204287021943
-0.11082833535938813,-0.22614683237856006
-0.14768131348466781,-0.2419855129774182
-0.17528791697247023,-0.25046759217695636
-0.1935750875695834,-0.25153664476476206
-0.20168503229074894,-0.24532448224108963
-0.1992721886746971,-0.2321831542762498
-0.18704446436088967,-0.2118684920772645
-0.16496738718860696,-0.1845911381095037
-0.1328430636428676,-0.15031873685376707
-0.09447461591501158,-0.11413191225650603
-0.05043125656641524,-0.0767778980689567
-0.003531308844240749,-0.038722146746627016
0.04338508027421098,-6.1683495463474e-05
0.09046483714580948,0.039075822441627106
0.13747036746411004,0.07825787413090499
0.18351097384913184,0.11585604553602162
0.22752588238935334,0.14814962843553783
0.2697338733786283,0.17504403304003247
0.3035870817767872,0.19321404045990329
0.32855087598757277,0.2024801216819324
0.3444901037071605,0.20338083575945703
0.3511641025154546,0.19663054018805048
0.3486079694329487,0.18216464820244424
0.33673419195361043,0.15982687655314246
0.3154510422200779,0.1296431419235506
0.2855097205091722,0.09297960196327128
0.24873769922877223,0.053176246907087846
0.20480152399646165,0.010744791255481214
0.15972194281418672,-0.03051667973885845
0.11408343725225675,-0.06980846456172007
0.07002902898017467,-0.10352140755470542
0.02764421000019289,-0.1320059943582974
-0.007554949027960763,-0.15271958090513524
-0.03406760865080268,-0.16472647398948478
-0.05192120445609258,-0.16820257123370802
-0.06101571557565299,-0.16313869800411088
-0.0613151594505423,-0.14948993819714795
-0.05217886271806994,-0.1276658298124434
-0.03327760185499458,-0.09817159473228576
-0.0048037051859921055,-0.061998123968033066
0.03128821211889773,-0.023424800917493223
0.07508819420249987,0.017525561727842334
0.12123920586863973,0.05832572318400242
0.16812420468466607,0.09825383103382754
0.21326794242636762,0.13308034830117224
0.25658500966680853,0.16283853449025523
0.29428015367584004,0.18534477778913508
0.32339809018697907,0.1989708300075283
0.3437699321678006,0.20389569978582195
0.35467685820461403,0.20106634341463983
0.35605677159858945,0.19063516509191664
0.3480857125996272,0.17216699457235582
0.330613115100586,0.14563602913877544
0.3037830261394364,0.11114156724075945
0.27024513596537125,0.07319038198054728
0.22996038525192966,0.03208415851156097
0.18561726004949966,-0.009453149540665059
0.13986382564429026,-0.049895470486704105
0.09279150372174759,-0.08896199268505481
0.04496275406676997,-0.12713358930222987
-0.002306541521462929,-0.1624801484230757
-0.047322973055497146,-0.19166953575981
-0.08987329949982865,-0.2145505648142662
-0.12348471361447219,-0.22925917063312393
-0.14830422183664943,-0.23589669172011496
-0.16396241766758,-0.23471247314737365
-0.16926738249150472,-0.22633313575472352
-0.16447365445956993,-0.21058566431329248
-0.15007408972207817,-0.18754221892931977
-0.1260450422209549,-0.15734315832465337
-0.09322120148659309,-0.12205674189354561
-0.05353362178511408,-0.0845652859769902
-0.007044190322508954,-0.04514357327979266
0.0397715001268567,-0.005898882757439071
0.0862744862332333,0.03207269568674292
0.12993210524790003,0.06494653075461101
0.17064451413892326,0.09280401543060526
0.20340952516159821,0.1126298909272091
0.22787727717514372,0.12353896624300342
0.24401973562472154,0.12572613710727007
0.2513261343744156,0.11953514800021214
0.24974305770929278,0.10496162085158396
0.23889626350717466,0.0821140803502009
0.21864449026447053,0.051136442048644266
0.18910755375125884,0.013724331914524704
0.15244678715559312,-0.025938572346274686
0.1084428493824737,-0.0676043540617401
0.06201435941148248,-0.108048614466667
0.014081455833864833,-0.1467710667776239
-0.035329297171396906,-0.18387460703155079
-0.08618832573717379,-0.21956483222955225
-0.1387535618952543,-0.25370621398918214
-0.19298839558441988,-0.286146655039347
-0.24891765665381627,-0.31685152752309664
-0.3060800491371766,-0.3463396873246236
-0.3643097049842342,-0.3748026866841229
-0.4231004895306246,-0.4023443927641111
-0.4820946594130606,-0.4293370978562738
