disp,force
0.0,0.0
0.00414588025150731,0.006696880929356036
0.009707389407798233,0.01374207086510719
0.01668452746887277,0.021135569807253455
0.0254587542465784,0.029044564588548576
0.03713847011596175,0.03795484674553638
0.05172367507702281,0.04786641627821687
0.06833096377843768,0.05857028964564786
0.08611859200013462,0.06986733890796056
0.10508655974211362,0.08175756406515496
0.12495813937036526,0.09449919428465267
0.1415039083501604,0.10147330635287877
0.15744449556099438,0.10902408108340503
0.1723910658498653,0.11697407773773451
0.18596215940492566,0.12515610948311348
0.19708470076666332,0.1329926804553238
0.20584944140760217,0.14024819765584487
0.21313978667906616,0.14713164462561878
0.22008860613360648,0.1530712288418497
0.22694769189603897,0.15740018695658303
0.23399377160037305,0.15986028980239714
0.24058401555652045,0.16105993756090833
0.24653758430452022,0.16118349118159225
0.25218810095396166,0.16048684589069828
0.25644763728578324,0.16051591170825627
0.2592808683844506,0.16136239296194055
0.2612619234733624,0.16244607817468099
0.263910615504876,0.16190216631345447
0.266935819146512,0.1605015778409256
0.2688837991558795,0.16033441784272923
0.26881160113809366,0.1625173334607672
0.26744559706646465,0.16636396679764212
0.2665236179649376,0.16948014219246074
0.2664488388771706,0.17128948794936322
0.2682299709823763,0.170306515713514
0.2708527961188557,0.16730480589535623
0.27365243359068603,0.16310016297048066
0.2747552574861905,0.159601189288067
0.27343797598293373,0.15689742688707506
0.27090253219849075,0.1535655340298248
0.2684726831877188,0.14848886357441432
0.2664191027662039,0.14166741552084364
0.26319442183719016,0.13531539568991943
0.2584712394429528,0.12993615562027805
0.25233267289977024,0.1254703044485655
0.24581448597524908,0.12116206039439598
0.23911817905191018,0.11717788110023672
0.2325975650890732,0.11347396524993128
0.22652956643361646,0.10980232272299667
0.22009473904442023,0.10587207490129075
0.2129122802615121,0.10168322178481352
0.20457768269152427,0.09737447718852826
0.19500490184306057,0.0930350232134889
0.18417337567360043,0.08865942552916661
0.1726707613383303,0.08423756883806909
0.16056806728205267,0.07975023316569084
0.14773860598677002,0.0750283262039311
0.13472715112960337,0.07005266279667699
0.12198007218610966,0.06498169102545152
0.1100102888895557,0.0601254726685509
0.09831079708616591,0.05551573748322919
0.08701543035372204,0.05101377165452309
0.07641973979160209,0.04653213187198751
0.06664528647590308,0.042071827026270554
0.057100512975008615,0.037641941613024095
0.04851995293632452,0.03323419961080222
0.04093221137669099,0.02885002314025938
0.033743487346490304,0.024508210939882178
0.026664445654245784,0.020206482560194545
0.020001610607810305,0.01592565484104241
0.014293098117798586,0.01163934420085299
0.009585394813354882,0.007355538799456668
0.005668994086497407,0.0030724998462446323
0.002260437839207348,-0.0012002161410492559
-0.0007248066258428786,-0.0054570925540384
-0.00411382700676893,-0.009688432026828678
-0.007374870848125853,-0.013142639302644999
-0.010398391190982232,-0.015747830723212085
-0.012895834681431165,-0.017503242235496232
-0.014871044508046317,-0.01841632781421744
-0.01635513242766679,-0.018492433635056958
-0.017389657110035612,-0.0177444259368301
-0.017967953561643723,-0.016178902250507433
-0.017928124760569295,-0.013806427984470942
-0.01730595287061165,-0.010714810689471856
-0.016157765800163013,-0.006942576584296513
-0.015118733886031972,-0.0032401083807409715
-0.014174231457443637,5.1856806330891006e-05
-0.013318437647018242,0.0029167809279162914
-0.012559207643674545,0.0053870048151486265
-0.011945395467054204,0.007566459374072464
-0.011481929076558437,0.009460022683672726
-0.01114187771532681,0.011035301485631182
-0.010884052213541601,0.012244492167178994
-0.010588137710075895,0.013169885670680795
-0.010236779314440296,0.013832624522525623
-0.009846263805322598,0.014225444097952894
-0.009491736539932412,0.01461758427117746
-0.00905782652561384,0.015004026403359311
-0.008527988735383256,0.015358954918449252
-0.007876025083123307,0.01558274219760406
-0.007183519814302826,0.01569088442150332
-0.006484068679291321,0.015722372379435818
-0.005812365251022727,0.015723058634430447
-0.005161183413311542,0.015690772714341737
-0.004491550148254945,0.015642898311566993
-0.003788865615097627,0.015562531650916882
-0.0030537555929221415,0.015440707328948748
-0.002406630104194342,0.01530049842994775
-0.0018713712731689553,0.015170229405836684
-0.0014256041131783938,0.015046001306315128
-0.0009857867230680252,0.014913274236748235
-0.0005457702842974558,0.014775051804667453
-0.00011205039375047186,0.014633285059812722
0.0002938655569609351,0.014492556923215119
0.0006575545036856854,0.014355303795266007
0.0009807033843562613,0.014245694075915291
0.0012801675285219621,0.014145410451942115
0.0015612543419799962,0.01404553089874202
0.0018434237110592853,0.013918699270544474
0.0021707194780315013,0.013768593165817508
0.0025411839872108463,0.01359425629851638
0.0029284212471857502,0.013402452839995237
0.0032764587015478826,0.01322018545171879
0.0035995776257237364,0.013045041684801431
0.003908339584197189,0.012869273094066248
0.004199204022565331,0.012688009140817176
0.004455941390361418,0.012528532541717737
0.004691546516065873,0.012409884255945192
0.004910826043076208,0.012334916841303454
0.005069690718231132,0.01229878730332809
0.00515879821937749,0.012279709551976707
0.005198395719386461,0.01226791580836372
0.00524599874474795,0.0122402207487867
0.005305388741078549,0.012205979742685783
0.005380427208045459,0.012170504834846519
0.005471221946136668,0.012143606961219506
0.005574916641762838,0.012129396909867212
0.005673209060646333,0.012117755746216836
0.0057481376945575325,0.012099051904483136
0.0057968833203876835,0.01207238119314639
0.0058283838961344665,0.012059206822644965
0.005836060359495783,0.012054275495914377
0.005818369740390055,0.012053769875192343
0.005777130145796776,0.012053358020179891
0.005724578360235357,0.012064017704349835
0.0056641471376207226,0.01208080853044765
0.005601413269976772,0.012095704415425491
0.005538429231885577,0.012105751451126372
0.005487925476613845,0.012117689059015155
0.005459608664452304,0.012128042452216548
0.005455265127783074,0.012136051857919635
0.0054810295159377015,0.012147182765788064
0.005531930051703844,0.012163809036170386
0.0056023671824854205,0.012180907239925437
0.005674034166432531,0.012185668998866181
0.00573504728838192,0.012174510369347568
0.005782686069899026,0.012151346646354963
0.0058116589657145066,0.012129982879020137
0.005819753234236453,0.012117831925311542
0.005800407796029221,0.012120033822719667
0.005768962431718424,0.012135747474200615
0.005728808641063935,0.01216442164028481
0.005682353321021882,0.012202395067189165
0.005608010386335198,0.012238833025155816
0.005511849794334369,0.012275566118898984
0.00541047624981965,0.012326365665846495
0.005312201555758,0.012409167618021957
0.005220264782836697,0.012513120834450593
0.005143976888960663,0.012623817286843156
0.005087720305950315,0.012736938163874202
0.0050347732849534,0.012854407215002568
0.004985629774626224,0.01296250275564292
0.004943349317570921,0.013060490893916948
0.004927011386276986,0.013162134874707947
0.004919892915775093,0.013286972517873748
0.004917272916428243,0.01342481644963158
0.004910496326533722,0.013550174106600189
0.00489901802781516,0.01365104507472014
0.004875739803959539,0.013734424524312233
0.004838666554157034,0.013787810124207456
0.004789127066236264,0.01380183923080467
0.004723680304751597,0.01379057257555962
0.0046457486948935185,0.013787833987003935
0.00455828152578527,0.01379428900651523
0.004478305507515288,0.013789962810142173
0.004407482328559547,0.013772463906566704
0.004346155247653798,0.013749348907146462
0.0042950538045301604,0.013732352807773367
0.004254442796840337,0.013721094513378013
0.004221934893573738,0.013732395166454851
0.004196687894160106,0.013774917117366737
0.00417894519239068,0.013848310075341949
0.004164789700729056,0.013920771497161701
0.004161262518678596,0.01398274251429619
0.004168687730088738,0.014034159810496398
0.004180365905478789,0.014078151186286591
0.004173135817771773,0.01411810185434598
0.004146813045511941,0.014154277232842091
0.004076770522366747,0.014201742286641564
0.003931324994874987,0.014279593462576666
0.0037099898757782957,0.014388531053885682
0.003622490595152075,0.014223121666809767
0.003762841799201208,0.013646449046892847
0.004123559712066663,0.012664478006161684
0.00475910846753283,0.011277326306186258
0.005677623725843284,0.009484236125759824
0.006757713861105276,0.007485636348528356
0.007431143368749102,0.0060827177049716874
0.007722274517455607,0.005260796325292582
0.007794327532152525,0.0049285800694890206
0.007802440515550364,0.005000919471693335
0.00753664464378249,0.005783598216436077
0.007035420071106603,0.007375518635482398
0.006351612132524864,0.009761518937785886
0.00543012896528434,0.012941981682119083
0.004367802237819894,0.016950118381204356
0.0033121787364798327,0.021583109325397275
0.002808680282951018,0.026051318389787848
0.0027795969078489653,0.03039410388621433
0.0030933916397071454,0.03468366150784648
0.0036270523780157523,0.03898406339548416
0.004414968547857804,0.04327274723070253
0.005324645348770719,0.047587726936192516
0.006313155747549051,0.051972234358883915
0.007384002271117675,0.05643618209556288
0.008437255331802866,0.06094638014550758
0.009448754782314763,0.06556857854120558
0.010441209233321536,0.07029155400625002
0.011524212150065253,0.0750509887638431
0.012792856494508004,0.07977244086876661
0.014215016264449095,0.08447698764608841
0.015697786605436293,0.08917366679731482
0.017184298626156228,0.09384933426834105
0.018664634024812176,0.09847592000328372
0.0201738671300978,0.10305954693846224
0.021723969112958368,0.10760519122097124
0.023337454731590573,0.11204596871452546
0.025083281876438306,0.1163744145331634
0.026929567051643986,0.1206154881418446
0.02879990493691389,0.12484541099395585
0.030743501974567215,0.12906886871369783
0.032818873593973175,0.133299385917989
0.03511305529276328,0.13752606289752353
0.037652660998412434,0.1417276874891271
0.04039911385530209,0.1458882241596941
0.043328541320445675,0.1499008939917267
0.0464363799442486,0.15373833682535945
0.04964106271978634,0.1574061094099284
0.0526620728002751,0.16086942218331876
0.055480722544046526,0.16412649563736195
0.057998217980162095,0.16698512936168347
0.06009852156456581,0.16900652844418287
0.061751466690939526,0.17021473664827086
0.06294358182457119,0.17068438154333518
0.0636853860742927,0.17045821656715546
0.06398878081214537,0.16963804449013486
0.06374086038483326,0.16817332696980267
0.06292736068420968,0.16604751018908145
0.06184122165680342,0.1632954382662935
0.06065404368039339,0.15991786478677747
0.059415414283598894,0.15610230453670704
0.058129025918060864,0.15221329477649503
0.05655999253390386,0.1480955809587197
0.05469517173836505,0.14369574767716742
0.05262521670411889,0.1390820487394158
0.05042351565809141,0.1343350064465477
0.04820618915888777,0.12953265901801642
0.046211098964111214,0.1247944319881336
0.04446730610964759,0.12014019712284393
0.042771326796856024,0.11554920132950011
0.04080719059743388,0.11082324589794752
0.03868724260379621,0.10603658847987392
0.0367340907221994,0.10135768999507545
0.03511230863268886,0.09681132672384729
0.0337207240537582,0.09228649142083231
0.0324632621745104,0.0876441136597593
0.03132503234619358,0.08284576458027731
0.03009515110804652,0.07779014927261448
0.028731063555702506,0.07247679624694449
0.02726447846501107,0.06692887814154264
0.025980749592480853,0.061364527972551014
0.024646116472423908,0.05593594558331433
0.023172857248459282,0.05062992460145818
0.021568323430298977,0.04541249336443484
0.02012294805067705,0.04026811812318442
0.018859417693564497,0.03525534700289524
0.017688680805775046,0.030388861744341807
0.016549135278118073,0.0256545884427402
0.015441851879329392,0.02103307226576459
0.014316116189514451,0.016520711483559162
0.013195861839655215,0.012097515504097957
0.012311294917442,0.007612754840361997
0.011640573421610905,0.003075464976125612
0.011011772162404532,-0.0015051587063586015
0.010078982846603766,-0.006110062252003798
0.008757589363101467,-0.010733876309829148
0.007151533913835778,-0.015352853760258257
0.005398384993134538,-0.019936585771579664
0.003538683584311721,-0.02447635488278995
0.0016233187522743191,-0.028971732494999947
-0.0003228922269457217,-0.033410920761792445
-0.0022945590826947797,-0.03779420133513331
-0.00426209839769017,-0.04213405782853332
-0.006186078143180714,-0.04644805379245621
-0.00801102305868136,-0.05073970943292892
-0.009580124321332206,-0.05465652445182173
-0.010793745615043385,-0.05770458730859215
-0.011727853324952124,-0.05990023293016774
-0.012480923064864901,-0.06126037551507828
-0.013080699503605235,-0.061788940448989804
-0.013545316876393012,-0.061497669292281
-0.013944375996155294,-0.060338782117560955
-0.014290545548650918,-0.05830527022634358
-0.01460416458570728,-0.05555315771905978
-0.014802905081463539,-0.052830946448983916
-0.014958959747672453,-0.05049650606522651
-0.01517431654165558,-0.04900102106156145
-0.015451916830611296,-0.04829104964076426
-0.015733825984047097,-0.04835839506530857
-0.01605720870507496,-0.04930270358298653
-0.016449839693598315,-0.05116829346328728
-0.016843954029346096,-0.05400413333796165
-0.017201074176638825,-0.057722583982118325
-0.017538762411601336,-0.0621458968360567
-0.01792675497842117,-0.06652488343667068
-0.018318361420506125,-0.07085699782760733
-0.018711230096624513,-0.07518496705563531
-0.019113732948615045,-0.07956791142080273
-0.019538707632953924,-0.08401227454347833
-0.019921244777705637,-0.08841448479020395
-0.02046956006379473,-0.09273022389149041
-0.021273401348172457,-0.09695949184733772
-0.02236631889677822,-0.10119348845138677
-0.023544623889376625,-0.10542528107335963
-0.02481683013786951,-0.10965533588052577
-0.026249054127194978,-0.1138865811662374
-0.02790399099755987,-0.1181202508765875
-0.029770327439927094,-0.12235066650875241
-0.03180985281308658,-0.12645394998785447
-0.03399643082245729,-0.13030913401228528
-0.03609407108721125,-0.13391621858204486
-0.039187451676146616,-0.1367821309028387
-0.0436709179514285,-0.13874130840884058
-0.04974109193939577,-0.13980560243816398
-0.055567750829786246,-0.14013691208511994
-0.061131468594254036,-0.1397348550127091
-0.06643453444596455,-0.13853183164429833
-0.07166123033016501,-0.13633964302338722
-0.07683692923158932,-0.1332757236044848
-0.08187591746114113,-0.12954664847156527
-0.08667359182112752,-0.1252324788592256
-0.09005552638579911,-0.12082628756176038
-0.09171281328107228,-0.11637872669129276
-0.09167917153578015,-0.11185525085800281
-0.09178761168076988,-0.10710084125938188
-0.09199464617441475,-0.10233996652839168
-0.09223529066334249,-0.0976389922955724
-0.09231985507374121,-0.09314790422062526
-0.09223476177262477,-0.08877076410368674
-0.0920918607436705,-0.084421964162391
-0.09193588294125096,-0.08006253197027033
-0.09171600834351182,-0.07572734402453447
-0.09134679946237155,-0.07153131077888641
-0.0909804168488162,-0.06746893403211528
-0.09066332593901279,-0.0635235430926665
-0.09041347293813044,-0.05947101174540149
-0.08977415757614274,-0.05531746270486643
-0.08875078798161437,-0.051101109267860385
-0.08753416340529514,-0.046902656920130674
-0.0865205929355765,-0.04268804174147775
-0.08576994881577886,-0.038416174923772285
-0.08495254460882354,-0.03405236262221328
-0.08377546980601278,-0.02959674544101044
-0.08206144232222291,-0.025088609172165172
-0.08005438256148187,-0.021045709612458614
-0.07784282996363541,-0.017578349300722856
-0.07589488924036634,-0.014634670144342431
-0.07434704842473641,-0.011667312440659505
-0.07302208589898194,-0.008691508903790314
-0.07145071034658415,-0.006032040887313799
-0.06948683707697513,-0.004270822199394522
-0.0675109725490879,-0.003407670187623755
-0.06639692968802272,-0.002931728907419134
-0.06654974385351607,-0.002486901076741688
-0.06768031945455953,-0.0015654417411246713
-0.06914373319332807,-0.00015896024455440088
-0.07082202030035295,0.0016680835460811361
-0.0725616701569443,0.003400269859841202
-0.07421160154919419,0.005321076410475097
-0.07584479670522998,0.007721220631362208
-0.07758130033212358,0.01110791703982595
-0.07937427245956219,0.015346798708715791
-0.08064281067114329,0.0199271502976591
-0.08081810788243374,0.02449039620909047
-0.07979691829473214,0.02903497405080554
-0.07816116710247531,0.033663138123445784
-0.07632349882639025,0.03837675105577568
-0.0743469259750304,0.04314133937902454
-0.07238015844610296,0.04767393213120843
-0.0704066592927116,0.05197806326829278
-0.06845246849835218,0.056128432081118756
-0.06655373766201435,0.06026587905658782
-0.06469313470530771,0.0644009016074184
-0.06303443135292892,0.06853597804913694
-0.06156284503413518,0.07267215559480078
-0.06021125759307813,0.07680914128201079
-0.05867358483684315,0.08096379697082119
-0.0571191746338678,0.08512277014031785
-0.055576058946252296,0.08928366098268763
-0.05403151582903839,0.0934452320034663
-0.052319172243955735,0.09762054143052969
-0.050449716562327565,0.10180311570412688
-0.04840284535188562,0.10597688513807926
-0.04612340400093392,0.1101336835995623
-0.04372942087891665,0.11427402626772297
-0.04137859587301141,0.11842173269326528
-0.03911725302914473,0.12258883451591544
-0.036730054555953774,0.12679121779364122
-0.03401170638825528,0.13098257095941865
-0.030975351979570947,0.1351562729743178
-0.027788826559916144,0.1393095135283296
-0.02445908535732259,0.14349103903645702
-0.02102376388244891,0.1477064217721602
-0.017574545651457062,0.15192909818491335
-0.014159902607821115,0.1561129838034508
-0.010689253020211831,0.1602345520394677
-0.006999622986314023,0.16421748275050263
-0.00303756549309648,0.16803232001993623
0.0010172860401570494,0.1717272684708402
0.0046103220397853036,0.17556162976583845
0.0077097410737891735,0.17954090631983274
0.010414405430754486,0.18359332633695064
0.013096914747296507,0.18762554281541452
0.015793797927881246,0.19167228543857473
0.01881048177550248,0.19577156879444185
0.022456119960319963,0.19991368365225548
0.026614062625945064,0.20416291851475085
0.030905293365799558,0.20855504029854155
0.03519679059156525,0.21309262756064112
0.04002704843857054,0.21752070321585432
0.04553735143849471,0.22183912976479617
0.05163959781276775,0.22607148258587595
0.057910288500099966,0.23030572624527143
0.06417105530648405,0.23452299893219758
0.0701649433724003,0.2387313705299095
0.07572640553106604,0.24294055026916755
0.08101223832061169,0.24715053814997176
0.08634801113458423,0.2513550231723279
0.09185584457554447,0.2555632916455011
0.09753178983781054,0.25977964153413596
0.1032678260134472,0.2639884600048488
0.10875132915460363,0.2680611718263549
0.11403011734671611,0.2720018820206134
0.1192889458536257,0.2758035914253859
0.12454737463166853,0.2793871026126951
0.12966179717746745,0.2827524155825411
0.13445381875304482,0.2855748543679702
0.1389020299952734,0.28753258169900764
0.1430173318899106,0.2886137327093748
0.1462597404521718,0.28883851980865377
0.1484558192765555,0.2882147582844644
0.14991536301962374,0.28687070401468134
0.15070887145480139,0.28482356659973884
0.15082995751225464,0.28209920701266034
0.15023666041108752,0.2787724537493541
0.14886850929596548,0.2748315129109661
0.14674710236673572,0.27060106046444976
0.143809370319994,0.26639017284976724
0.1399792911648991,0.2621873666505462
0.13580079769191744,0.25796813149256026
0.13148022364648726,0.2536487790405022
0.12702574336782202,0.24920797471239062
0.12237482742692125,0.24463515766837135
0.11764984063930553,0.24006476504899057
0.11287318382953465,0.23550116578631725
0.10804441424178,0.23094258990843045
0.10301757764090573,0.22635653721797422
0.09787715269344337,0.22175576854496118
0.09280840116421608,0.21715799558435359
0.08790052282878842,0.21256830403920762
0.0831206203472237,0.20806256695721048
0.07855250137566035,0.20366254006765336
0.07421357543907987,0.1993630083737036
0.0699760852417358,0.1950252367701706
