disp,force
0.0,0.0
1.055502450816206e-07,7.276030776341733e-09
3.10444616873832e-05,-3.310801024040452e-05
9.281673432690473e-05,-9.93458588135426e-05
0.0002817365735141061,0.0007941318760587977
0.0006530198239086074,0.0032165080748069734
0.0012068899245429024,0.006785248878994918
0.0019439472582401351,0.010472482142415173
0.0028641918250003054,0.014278207865067739
0.0038531285181732083,0.017832083051690456
0.004898994346358535,0.021096059425847
0.006250908334736317,0.025120301588751722
0.008088364796786675,0.03082376439289138
0.010833276296844916,0.03864591506165765
0.016336962193477633,0.049622584862994285
0.02454420664202521,0.06318459091647094
0.03568986211717268,0.07938647694504351
0.04982716137181598,0.09918100430539366
0.06687887167112326,0.1225733658601406
0.08686481704836395,0.14994026996088353
0.10982858243479789,0.18128505561689434
0.13586398199387578,0.21518338698455927
0.16476079360116536,0.25074943904972435
0.19614177135231273,0.2870726238222688
0.22807660888789646,0.3219415135208368
0.2606046383824384,0.3552500122843489
0.2935619004635377,0.38713427822323865
0.3268945619954752,0.41766942212703195
0.35529852034662673,0.43835238190521464
0.3788235379738196,0.44910587531471247
0.3968021376064075,0.4513804457308937
0.4085136729663817,0.4463913255537983
0.41390611132751837,0.4341781352244895
0.41278893530354144,0.4153230538863108
0.4051448176899553,0.39000883990692664
0.3909621583141196,0.35820629441265556
0.3701729714317723,0.3200919753650671
0.34275208536473045,0.2757457679154935
0.314058884082363,0.23373520651897667
0.2841768483618838,0.19409396621700364
0.25393025032527516,0.15522410131547423
0.22369669751166996,0.11628454338071735
0.19328404129197563,0.07711460185017192
0.1627791302622973,0.037573963881577126
0.1321266611285153,-0.0019317228348631373
0.10122880162746174,-0.040752980647689674
0.07006848727523146,-0.07884488281039101
0.03850295441929151,-0.11592992642723199
0.006554154456729138,-0.1520777767253595
-0.024154058486447107,-0.18392949968807742
-0.05313859708759619,-0.2099608524636698
-0.07898901069834556,-0.22948941562744027
-0.09881664285242599,-0.24111464062599997
-0.11256249141964803,-0.24480727299370225
-0.11987155184645093,-0.2407902579734702
-0.12066867960894655,-0.22957470342277866
-0.115191990883122,-0.21108406062525253
-0.1034286505403363,-0.18561036604108058
-0.08530308273690214,-0.1531513630786989
-0.06225652986041463,-0.11702213966014806
-0.0349606960247105,-0.07856482705124801
-0.004945559849356546,-0.038982891100654844
0.02512967288307849,0.00037997580470224696
0.05440505154802126,0.037053437278352974
0.08180560465119734,0.0686277115317966
0.10665925716571346,0.09453330415417004
0.1257549680463879,0.11172327725863382
0.13924783749529537,0.12013227925830912
0.14715389649779514,0.12007356734495399
0.14927527728039103,0.1116208430615365
0.14550045457571303,0.09467990218846827
0.13580275465199337,0.0696482961099318
0.12018001932048383,0.03666456974039333
0.09926194969075872,-0.0007875703601530476
0.07382381599765146,-0.04048104485048748
0.044340719648959276,-0.08164758111407985
0.01419503420156608,-0.1212615517371843
-0.015850901067844952,-0.15780130037061377
-0.04440595371271036,-0.18862274039150692
-0.07149343985860773,-0.21380617759223702
-0.09285196860615993,-0.23061985678921584
-0.10822967969484883,-0.23887312900202096
-0.11768672102701233,-0.23903332597101853
-0.12104193426512246,-0.23236425506888955
-0.11826551259224556,-0.2185887225338465
-0.10907436127226405,-0.19706077307145425
-0.09338776295404226,-0.1678652976080287
-0.07198211151481193,-0.1329396159288621
-0.046342026456905265,-0.09529893596148266
-0.016460631004001355,-0.05522263571589707
0.013518617902479529,-0.01560862757246587
0.04322556082993492,0.022794816844644863
0.07127554066214453,0.056616682228889624
0.09771764857657937,0.0861074057794257
0.11933201369571833,0.10803316472451348
0.13517353562611767,0.12075470275126414
0.14523180734292604,0.12439603892823539
0.1495067716369492,0.11954100516666856
0.1479964174322312,0.10623787855886252
0.1406329705975468,0.08465131878624953
0.1274100224423092,0.05504168726519014
0.10834010999953549,0.018734938120367042
0.08477470367272597,-0.020222824015605757
0.05664869261050783,-0.061653112850479724
0.02702071083229632,-0.10223901441036361
-0.0032553066480882475,-0.14118908094169405
-0.032361811583748776,-0.1747285827375145
-0.06022281890226543,-0.20289220213244458
-0.08418158939397428,-0.22387408542409482
-0.10242705406674846,-0.2363729689061476
-0.11492400045437584,-0.24051794163495996
-0.12130779881002529,-0.23736687375535084
-0.12146822565827475,-0.22720185381245117
-0.11556724130596069,-0.20960092678545736
-0.10350623194966022,-0.1848376020872478
-0.08508618217828619,-0.15282024700074662
-0.06192251688240526,-0.11735933830149935
-0.03408950930704872,-0.07868974086753176
-0.004313153095243313,-0.0392079967565814
0.02565638011578835,-0.00010065134639159964
0.054569263603463466,0.03553023514330391
0.08197137068445495,0.06718933333581946
0.10605428212024319,0.09307333043794498
0.12450814458045509,0.11005202417842631
0.13736584366855337,0.1180648152731425
0.14442963409450388,0.11749937160058355
0.1455077995268276,0.10826742116078088
0.14066962727923737,0.09041772514525422
0.13001413341871873,0.06452437375367188
0.11344633481009844,0.030873115947106452
0.09198177051501748,-0.006705997625327219
0.06596190131200112,-0.047304603883286084
0.036739397873767746,-0.0886890616628009
0.006831511280163826,-0.1283110339166505
-0.022745528606918176,-0.1639748422864576
-0.05129901281001485,-0.19464259574938592
-0.07771230241291624,-0.21947772939957705
-0.09830062533330168,-0.23562444472562868
-0.11308985190211579,-0.2430588131428149
-0.12198319521111685,-0.24274800659969317
-0.12478129964293137,-0.23539686354029257
-0.12153476409645238,-0.220631975415379
-0.11183822399675356,-0.19851184801955107
-0.09567886594055709,-0.16907641408869767
-0.07411632112766112,-0.1346824298358896
-0.04784456865658206,-0.096847086879529
-0.017851084744989684,-0.0566793913012192
0.012160555602100083,-0.017062855007047333
0.04172605081295409,0.020728592683336343
0.07016961964457923,0.05552714634210988
0.0972827764981806,0.08716910409198472
0.11853900104693481,0.1093533968084627
0.1339886772817169,0.12170820191538344
0.143670094730028,0.12511117997367646
0.14764143559435733,0.12010183020736952
0.14591801367323387,0.10668121173884061
0.1384040091592801,0.0851240717818902
0.12506133764383287,0.055510741277192764
0.10589321269114377,0.01956346952236638
0.08154951909097544,-0.02084508953969473
0.05222864124622902,-0.06489500448878695
0.022500758845106633,-0.10626976805137558
-0.007362890982904175,-0.1443046574384176
-0.03644078938175295,-0.17752057910236096
-0.06474778658173663,-0.2063221306794798
-0.0881614901201765,-0.22705837640257742
-0.10602581541740234,-0.2391231244025915
-0.1181119968329179,-0.24285962174965856
-0.12372348460354858,-0.23906948255103772
-0.12288349614586348,-0.22770546219791046
-0.1159033617299843,-0.20883812917914452
-0.10277614181839669,-0.18285633019301037
-0.08372097258633056,-0.15054688033853317
-0.059674709328515506,-0.11428288927954157
-0.030659938112281612,-0.07423031762400732
-0.0008482977579795901,-0.03429049397963579
0.02903890960010466,0.00481530207748479
0.0579001087450412,0.04034206788997996
0.0854998379211371,0.07264309758714103
0.10885765528238905,0.0980076356375686
0.12680911768666073,0.11416991686335559
0.1392670952980236,0.12139405246497416
0.14598230212458282,0.12039984937508018
0.14693864508297433,0.1112250197958903
0.14212383308578666,0.09360123925507453
0.13156965388721495,0.06775113468244161
0.11512875166552447,0.034297867110590775
0.0935429062605358,-0.0032971915293482854
0.0667836731065793,-0.044900632122971684
0.037773887217361655,-0.08638029375020684
0.007999142778390993,-0.12595013521618886
-0.02157935513644913,-0.16143871571566237
-0.050608840966665444,-0.19301023518281668
-0.07666185569062726,-0.2183721837267382
-0.09712086687435681,-0.23465119790587993
-0.11192950205862716,-0.24193823523413366
-0.12051132386539044,-0.241605542926578
-0.12273530255803376,-0.23402624318683193
-0.11886130337479808,-0.21886516146095814
-0.10887759587834533,-0.19646291929112075
-0.09275432770053153,-0.16685884301226372
-0.07131914507894757,-0.1325496483679666
-0.04472438859167209,-0.09397749655558799
-0.0152805666220966,-0.05374700609775541
0.014429665550542599,-0.014297255355714151
0.043713883113148555,0.022537159841158425
0.07184985870689636,0.0566238620881448
0.09747159166036784,0.08618227423695378
0.11765225300446042,0.10655289035427275
0.1324850292308637,0.11758425645718683
0.14168966130389146,0.12023124263715006
0.14520196538222946,0.11461992837063784
0.14300126638083743,0.10057704579833757
0.134957428698678,0.0782771345883145
0.1209905762966191,0.047859234381483096
0.10142916787492957,0.011814764793580169
0.07659822389957427,-0.028862028919226873
0.04782924312181614,-0.07165195642819291
0.018330823022352033,-0.11222406022682019
-0.012097819684873933,-0.15064820161009546
-0.04342710006946601,-0.18791675788388068
-0.07500896279646616,-0.22315168441380787
-0.10182088043069615,-0.24868320391212162
-0.12384966800935762,-0.2643737474151727
-0.13992960386895092,-0.271824684946289
-0.14938407731846126,-0.27206925028522466
-0.15237220945144503,-0.2649743886607228
-0.14911576188669054,-0.251064429365454
-0.139612197829406,-0.23047002410580117
-0.12387109683818218,-0.20262837904443745
-0.10167163717587241,-0.1674626606320109
-0.0734764010882748,-0.12602724966792564
-0.04420186356676891,-0.08586888029091042
-0.013813648675987647,-0.04709078346708472
0.016686599373981634,-0.008483485740019132
0.04693200835067332,0.0304470871858948
0.07252245473143093,0.06084254097648102
0.09334727255747019,0.08178637356247426
0.10884121729053486,0.09412008321438974
0.11876942370514539,0.09801623955225636
0.12313449561881108,0.09339177040297035
0.12177934599495605,0.08001891810155874
0.11461535753004444,0.057956553867181085
0.10129185802242201,0.02804905061561937
0.08166093752008195,-0.00930145357875875
0.055619929647944086,-0.053744542253177804
0.02761135373473731,-0.09615647410583814
-0.0020086057910651354,-0.13583821786435976
-0.0327637011666165,-0.17366823883304555
-0.06420870432179063,-0.2103120391742646
-0.09244786945567733,-0.23963821479527753
-0.11611630646541386,-0.2591734512939631
-0.13465743605199648,-0.26960605783500985
-0.1468265104244906,-0.2728253715929613
-0.1525620845171595,-0.2689761839947989
-0.15197677900668335,-0.25798187777446785
-0.14495386860557835,-0.24024085467084894
-0.1315509951373966,-0.21526111492853015
-0.11171262994213683,-0.18274722994237907
-0.08545418226034057,-0.14290549883347345
-0.05671330756497394,-0.10231048083449104
-0.026865527170533872,-0.06309631225616733
0.003703677732620734,-0.024616734823804772
0.034081293706469167,0.014272652459197715
0.06172890836021101,0.0485760020316302
0.0848068822885761,0.0738292152908056
0.10306114513938693,0.09018522678557217
0.11546601925253529,0.09781378247971702
0.12205897724095388,0.09644703726675209
0.12288623754588458,0.08618685599183656
0.11799368336629897,0.06753717067352681
0.1072364496947367,0.040909369300648854
0.0902731624235578,0.006829052945533185
0.06706624563284141,-0.03463319839182491
0.03994620310055695,-0.0778519763441138
0.010967961283734659,-0.11879021603747686
-0.019724666869062622,-0.15759986360908387
-0.051078209792727425,-0.19493911396981145
-0.08120247907596746,-0.227837783230749
-0.10686130665893293,-0.25105780960733787
-0.1280576158672574,-0.2645807971611759
-0.14293321288236796,-0.2706464986225461
-0.15131782170526936,-0.2697384641737876
-0.15337048384702417,-0.26159874193031185
-0.148983944076929,-0.2466769189085148
-0.1382562439618676,-0.2248609072186233
-0.12133775043649046,-0.19585373153073085
-0.09818787051298986,-0.15965575574405777
-0.07034294876161826,-0.11931947575425549
-0.0410345228282534,-0.07998676311850596
-0.010313832410248157,-0.0418618083378481
0.02006599775557551,-0.0032902723177276882
0.049398698128340975,0.03421752020658035
0.07465201432770828,0.06346505223861734
0.09592886320779487,0.08426786026727531
0.11166942329263622,0.09679189147760182
0.12175997825082235,0.10080196164200748
0.12631036155494627,0.09625264395066833
0.12510020954019413,0.08317104339157588
0.1180713347068704,0.0616118961969261
0.10503265538550773,0.03227108113984149
0.0860239675018156,-0.004677376132775121
0.061455868895374466,-0.047115137712876176
0.034428304120193653,-0.08793704747638638
0.004876760635156484,-0.12711808822119824
-0.02565646751793848,-0.16489147872740018
-0.056797039669416044,-0.20131999850898763
-0.08403502264944493,-0.2289468261463357
-0.10747531849180442,-0.2476709073069059
-0.12575435894348783,-0.2582670617414761
-0.1378441958463123,-0.26165181213677624
-0.14379560078802373,-0.2577476725692397
-0.14345366753986458,-0.24694782458769315
-0.1367049069311474,-0.22948564497605728
-0.12359921444163142,-0.20458950565514747
-0.10403363628916074,-0.17221638069912798
-0.07804882093951394,-0.13275360860549662
-0.05029968126147845,-0.09394749174137053
-0.020763226618663623,-0.05583019869824911
0.009468132336886235,-0.017607510732311857
0.039605114795016966,0.021149305927170958
0.06655015336434345,0.05377561126020704
0.0896935748851893,0.07848645843509244
0.10803867553739398,0.09520745821607904
0.12044733532877139,0.10304848258431483
0.12695605325339654,0.10191501652981325
0.127884910774362,0.0921163289177161
0.12326905411803099,0.07398732750533968
0.11282030362229031,0.0479849181771756
0.09619563654670617,0.014231381290784512
0.0732280622527409,-0.027046299439311063
0.046755745891592704,-0.06883936300369767
0.01752912609547635,-0.10957769419461759
-0.013271536495335454,-0.14876869951402444
-0.04439102745558596,-0.18631277567253451
-0.07333225153187653,-0.21790295990226807
-0.09883729554573689,-0.240838775054502
-0.12031212320834153,-0.2553567594434242
-0.135800919165163,-0.2626120648226768
-0.14520907039170677,-0.2627928627265172
-0.14831624607261135,-0.25579722388509524
-0.14480584159550972,-0.24200710089028357
-0.1348065452343245,-0.22099699735258682
-0.11861694372172911,-0.19280478130795603
-0.0962160830507827,-0.15747916497263018
-0.07000410964532067,-0.11953813589304149
-0.041518369681127223,-0.08160410158555692
-0.01128275784852954,-0.04369868659361556
0.01900113978865395,-0.0052021700029385165
0.04794652126788751,0.030840068469335145
0.07369773173564215,0.06014128140492146
0.09605583233641674,0.08257805691783739
0.1126100844066682,0.09662002953303485
0.12347551785895776,0.10188686302416662
0.12870521760973924,0.09843474291809293
0.12821028996657177,0.08648702558084914
0.12194854493541782,0.06616930341246223
0.10976855583584066,0.03798171106410572
0.09165270426040693,0.001989094768361007
0.06843740009556955,-0.03800878118262718
0.04191217368720762,-0.07803655975170515
0.01228727512982001,-0.1177643127260688
-0.017886663510902734,-0.15593169982006025
-0.04780565765288224,-0.1910778262570718
-0.07511535460901966,-0.21879885145610406
-0.09984769329161852,-0.23910043421522126
-0.1189439719553713,-0.2514626537063991
-0.13192758838591886,-0.256042886515443
-0.13890131694925892,-0.25294599441159027
-0.13940973132788148,-0.24302325653459755
-0.13347337214025934,-0.22617764235150958
-0.12129116363036616,-0.20203251611376677
-0.1028743109264265,-0.17074334902147395
-0.0789497236491319,-0.13395162685620615
-0.051928110832869766,-0.09612250975599383
-0.021769286038055186,-0.0573835453849469
0.008564259003994056,-0.018551701009622973
0.038503871946838186,0.01988679225758852
0.06553845849184445,0.05198018782914472
0.08976298439758555,0.07782538026979643
0.10901038535996758,0.09612994921894365
0.1225089132485204,0.10576098515817037
0.13032566091756476,0.10665259398599303
0.13251769153077095,0.0988536252378173
0.12906463609983834,0.08241180460822968
0.11969504191288872,0.05788282664547385
0.10434749610427166,0.02545183187947162
0.08296556513728783,-0.013941152034540348
0.05801287389432269,-0.0538874670694712
0.029456255432249938,-0.09429059409339798
-0.0006087881887118229,-0.13366743362712707
-0.031229326617550485,-0.1715078825487381
-0.05967308083072474,-0.2026204287021943
-0.08567740973194242,-0.22614683237856006
-0.10760329473696971,-0.2419855129774182
-0.12365395297849367,-0.25046759217695636
-0.13378315074194105,-0.25153664476476206
-0.13753587970419417,-0.2453244822410896
-0.13476189608300806,-0.23218315427624978
-0.1258217321168548,-0.2118684920772645
-0.1107198086330704,-0.1845911381095037
-0.08934421460389683,-0.15031873685376707
-0.06433869662269405,-0.11413191225650603
-0.03609748608943147,-0.07677789806895671
-0.006214891792987018,-0.038722146746627016
0.02374356967161949,-6.168349546347915e-05
0.053844213372150354,0.039075822441627106
0.0839091487570582,0.07825787413090499
0.11327071457508887,0.11585604553602162
0.1409367880361457,0.14814962843553783
0.16701667716073895,0.17504403304003247
0.18755818035768398,0.1932140404599033
0.2022487714727939,0.2024801216819324
0.2110740154804414,0.20338083575945706
0.21398115680507626,0.19663054018805048
0.21098226694089564,0.18216464820244424
0.2020121575487677,0.15982687655314243
0.18702347960784022,0.12964314192355061
0.16657852857619548,0.09297960196327129
0.14204704442929597,0.053176246907087846
0.11330306683341783,0.010744791255481216
0.0840625241991893,-0.03051667973885846
0.05473380834855383,-0.06980846456172007
0.026889164319025348,-0.10352140755470542
0.0005366378907982108,-0.1320059943582974
-0.021022940806330867,-0.15271958090513524
-0.036864498713595185,-0.16472647398948476
-0.04702250500860868,-0.16820257123370802
-0.0514411905522628,-0.1631386980041109
-0.05009589069031422,-0.14948993819714795
-0.042681165256236844,-0.1276658298124434
-0.0290726520972326,-0.09817159473228577
-0.009485206684555934,-0.061998123968033066
0.014537954637035548,-0.023424800917493223
0.04304360239579253,0.01752556172784233
0.07281967083049498,0.05832572318400241
0.10290111928487072,0.09825383103382754
0.13146523192786813,0.1330803483011722
0.15846893059062558,0.1628385344902552
0.1815931166518538,0.18534477778913505
0.19903992716333752,0.19897083000752833
0.21073670198069527,0.20389569978582195
0.21639464573496803,0.20106634341463983
0.21599661693764685,0.19063516509191664
0.20959086631252338,0.17216699457235582
0.19709211596186701,0.14563602913877544
0.17859020189809946,0.11114156724075945
0.15603399079378166,0.07319038198054728
0.1294354594490413,0.032084158511560955
0.1005675755847165,-0.009453149540665057
0.07104872231622036,-0.0498954704867041
0.040959997843241724,-0.0889619926850548
0.010556137744074715,-0.12713358930222987
-0.019229077869922506,-0.1624801484230757
-0.047100167789499735,-0.19166953575981
-0.07292367940705659,-0.2145505648142662
-0.09295006872722461,-0.2292591706331239
-0.10727101741389904,-0.23589669172011496
-0.11571187202838798,-0.23471247314737365
-0.11768942714617761,-0.22633313575472352
-0.11332389382027128,-0.21058566431329248
-0.10289305655730345,-0.18754221892931977
-0.08639949104761345,-0.15734315832465337
-0.06452883304914257,-0.12205674189354564
-0.03865691884051229,-0.0845652859769902
-0.00884801184042122,-0.04514357327979266
0.02111992543622726,-0.005898882757439081
0.05077590265890095,0.032072695686742925
0.07831054628140238,0.06494653075461103
0.10367819912165811,0.09280401543060526
0.1238070872707795,0.1126298909272091
0.13840780460271326,0.12353896624300341
0.1474865548867297,0.12572613710727007
0.15080173817324438,0.11953514800021216
0.14832362886993344,0.10496162085158398
0.13985935500925362,0.0821140803502009
0.12534749909831772,0.051136442048644266
0.1050411476635666,0.013724331914524695
0.08058609839992432,-0.02593857234627469
0.051889690557615054,-0.06760435406174012
0.0220010756711426,-0.108048614466667
-0.008520713052021005,-0.14677106677762392
-0.03967251135548504,-0.18387460703155079
-0.07146086364308211,-0.21956483222955225
-0.10401198403243221,-0.25370621398918214
-0.13728901269096588,-0.286146655039347
-0.17130171326842739,-0.31685152752309664
-0.20585493049583886,-0.3463396873246236
